Datetime,close,ATRr_14
2025-11-05 10:45:00-05:00,248.4600,0.900411
2025-11-05 10:50:00-05:00,248.3303,0.87895244
2025-11-05 10:55:00-05:00,248.2450,0.85047734
2025-11-05 11:00:00-05:00,247.9000,0.83176476
2025-11-05 11:05:00-05:00,247.9600,0.80021006
2025-11-05 11:10:00-05:00,247.8200,0.7684091
2025-11-05 11:15:00-05:00,247.8650,0.73416567
2025-11-05 11:20:00-05:00,248.6600,0.7467255
2025-11-05 11:25:00-05:00,249.1000,0.7362445
2025-11-05 11:30:00-05:00,249.1000,0.7054419
2025-11-05 11:35:00-05:00,248.8900,0.68862474
2025-11-05 11:40:00-05:00,249.1300,0.6669369
2025-11-05 11:45:00-05:00,249.4825,0.6568275
2025-11-05 11:50:00-05:00,249.4600,0.6277684
2025-11-05 11:55:00-05:00,249.3600,0.60471296
2025-11-05 12:00:00-05:00,249.5100,0.5874766
2025-11-05 12:05:00-05:00,248.9695,0.58769906
2025-11-05 12:10:00-05:00,248.9900,0.55929214
2025-11-05 12:15:00-05:00,249.3099,0.55648583
2025-11-05 12:20:00-05:00,249.3350,0.5292371
2025-11-05 12:25:00-05:00,249.8100,0.52998465
2025-11-05 12:30:00-05:00,249.8600,0.53305703
2025-11-05 12:35:00-05:00,250.1150,0.52283865
2025-11-05 12:40:00-05:00,250.5150,0.5219223
2025-11-05 12:45:00-05:00,250.3175,0.50464207
2025-11-05 12:50:00-05:00,250.9700,0.5200249
2025-11-05 12:55:00-05:00,250.5800,0.514309
2025-11-05 13:00:00-05:00,250.5150,0.50149405
2025-11-05 13:05:00-05:00,250.3202,0.48710182
2025-11-05 13:10:00-05:00,250.3150,0.47230873
2025-11-05 13:15:00-05:00,250.0400,0.47285888
2025-11-05 13:20:00-05:00,249.9100,0.4694406
2025-11-05 13:25:00-05:00,249.9700,0.45305237
2025-11-05 13:30:00-05:00,250.2282,0.44261292
2025-11-05 13:35:00-05:00,250.5150,0.4442052
2025-11-05 13:40:00-05:00,250.2100,0.43604675
2025-11-05 13:45:00-05:00,250.0700,0.42106506
2025-11-05 13:50:00-05:00,249.7884,0.41527444
2025-11-05 13:55:00-05:00,249.8304,0.40596828
2025-11-05 14:00:00-05:00,249.4300,0.41128427
2025-11-05 14:05:00-05:00,249.4050,0.3961923
2025-11-05 14:10:00-05:00,249.5400,0.3871789
2025-11-05 14:15:00-05:00,249.5085,0.38167247
2025-11-05 14:20:00-05:00,249.5478,0.37012452
2025-11-05 14:25:00-05:00,249.1206,0.37654358
2025-11-05 14:30:00-05:00,249.1150,0.36177617
2025-11-05 14:35:00-05:00,249.0100,0.35522103
2025-11-05 14:40:00-05:00,248.9000,0.3482273
2025-11-05 14:45:00-05:00,248.8500,0.33621162
2025-11-05 14:50:00-05:00,248.9143,0.32462478
2025-11-05 14:55:00-05:00,249.0700,0.31929445
2025-11-05 15:00:00-05:00,249.2270,0.32148704
2025-11-05 15:05:00-05:00,249.5099,0.31980857
2025-11-05 15:10:00-05:00,249.3100,0.31588706
2025-11-05 15:15:00-05:00,249.0045,0.31832412
2025-11-05 15:20:00-05:00,248.9300,0.31058717
2025-11-05 15:25:00-05:00,248.4400,0.32882398
2025-11-05 15:30:00-05:00,248.5600,0.31884384
2025-11-05 15:35:00-05:00,248.7100,0.3153553
2025-11-05 15:40:00-05:00,248.7200,0.31354374
2025-11-05 15:45:00-05:00,248.9200,0.31364793
2025-11-05 15:50:00-05:00,250.0300,0.3883874
2025-11-05 15:55:00-05:00,250.2400,0.4310321
2025-11-06 09:30:00-05:00,249.1415,0.49881586
2025-11-06 09:35:00-05:00,249.6566,0.5479433
2025-11-06 09:40:00-05:00,249.1800,0.5730897
2025-11-06 09:45:00-05:00,249.3100,0.5832259
2025-11-06 09:50:00-05:00,248.1800,0.65049505
2025-11-06 09:55:00-05:00,247.9700,0.68894523
2025-11-06 10:00:00-05:00,246.6050,0.74237096
2025-11-06 10:05:00-05:00,247.4820,0.7586303
2025-11-06 10:10:00-05:00,247.2300,0.77158546
2025-11-06 10:15:00-05:00,246.9700,0.7693297
2025-11-06 10:20:00-05:00,247.3200,0.7686564
2025-11-06 10:25:00-05:00,247.1595,0.75503826
2025-11-06 10:30:00-05:00,246.7436,0.7689639
2025-11-06 10:35:00-05:00,245.3500,0.8333235
2025-11-06 10:40:00-05:00,244.7000,0.8287004
2025-11-06 10:45:00-05:00,244.5600,0.81593674
2025-11-06 10:50:00-05:00,243.9675,0.82529885
2025-11-06 10:55:00-05:00,244.0850,0.8284914
2025-11-06 11:00:00-05:00,244.0829,0.8178854
2025-11-06 11:05:00-05:00,243.8900,0.80982226
2025-11-06 11:10:00-05:00,244.0484,0.8005498
2025-11-06 11:15:00-05:00,244.1254,0.77622527
2025-11-06 11:20:00-05:00,243.7000,0.786316
2025-11-06 11:25:00-05:00,243.6600,0.7894364
2025-11-06 11:30:00-05:00,243.4000,0.7650698
2025-11-06 11:35:00-05:00,243.1750,0.75399345
2025-11-06 11:40:00-05:00,243.1300,0.75870115
2025-11-06 11:45:00-05:00,242.9500,0.7323653
2025-11-06 11:50:00-05:00,242.9809,0.7036251
2025-11-06 11:55:00-05:00,242.3600,0.71550864
2025-11-06 12:00:00-05:00,242.8900,0.71297175
2025-11-06 12:05:00-05:00,243.7300,0.7284667
2025-11-06 12:10:00-05:00,243.3700,0.72000486
2025-11-06 12:15:00-05:00,243.5900,0.70843303
2025-11-06 12:20:00-05:00,243.3600,0.6971089
2025-11-06 12:25:00-05:00,243.9400,0.7048149
2025-11-06 12:30:00-05:00,243.9400,0.6969634
2025-11-06 12:35:00-05:00,244.2000,0.6993229
2025-11-06 12:40:00-05:00,244.4400,0.680085
2025-11-06 12:45:00-05:00,244.3701,0.65507907
2025-11-06 12:50:00-05:00,244.4036,0.6311442
2025-11-06 12:55:00-05:00,244.4980,0.6124918
2025-11-06 13:00:00-05:00,244.2195,0.600885
2025-11-06 13:05:00-05:00,243.7000,0.6051077
2025-11-06 13:10:00-05:00,243.7400,0.5825995
2025-11-06 13:15:00-05:00,243.6100,0.57239217
2025-11-06 13:20:00-05:00,243.9900,0.57992095
2025-11-06 13:25:00-05:00,244.1100,0.56277585
2025-11-06 13:30:00-05:00,244.4400,0.5654275
2025-11-06 13:35:00-05:00,244.5650,0.55218303
2025-11-06 13:40:00-05:00,244.3050,0.5453843
2025-11-06 13:45:00-05:00,244.2000,0.53499275
2025-11-06 13:50:00-05:00,244.3800,0.5262361
2025-11-06 13:55:00-05:00,244.2438,0.52936155
2025-11-06 14:00:00-05:00,244.5700,0.52869207
2025-11-06 14:05:00-05:00,244.4700,0.53592104
2025-11-06 14:10:00-05:00,244.9900,0.536213
2025-11-06 14:15:00-05:00,244.8700,0.52076864
2025-11-06 14:20:00-05:00,245.2200,0.5195424
2025-11-06 14:25:00-05:00,245.4099,0.5102893
2025-11-06 14:30:00-05:00,245.3250,0.49455497
2025-11-06 14:35:00-05:00,245.0700,0.4821363
2025-11-06 14:40:00-05:00,245.1800,0.472305
2025-11-06 14:45:00-05:00,245.0600,0.46141896
2025-11-06 14:50:00-05:00,245.1500,0.44560263
2025-11-06 14:55:00-05:00,245.2600,0.44341627
2025-11-06 15:00:00-05:00,245.0400,0.438173
2025-11-06 15:05:00-05:00,244.9500,0.4225893
2025-11-06 15:10:00-05:00,244.7500,0.42097643
2025-11-06 15:15:00-05:00,244.5800,0.41268533
2025-11-06 15:20:00-05:00,244.4400,0.40528616
2025-11-06 15:25:00-05:00,244.1200,0.40633702
2025-11-06 15:30:00-05:00,244.4400,0.41909805
2025-11-06 15:35:00-05:00,244.3450,0.40706974
2025-11-06 15:40:00-05:00,244.2200,0.400851
2025-11-06 15:45:00-05:00,243.6790,0.41864696
2025-11-06 15:50:00-05:00,243.0800,0.44802946
2025-11-06 15:55:00-05:00,243.0800,0.48602813
2025-11-07 09:30:00-05:00,241.3210,0.6098833
2025-11-07 09:35:00-05:00,239.9900,0.68703467
2025-11-07 09:40:00-05:00,240.1400,0.7292105
2025-11-07 09:45:00-05:00,239.6934,0.76426697
2025-11-07 09:50:00-05:00,239.9800,0.7582899
2025-11-07 09:55:00-05:00,240.7300,0.79769754
2025-11-07 10:00:00-05:00,240.0153,0.8059188
2025-11-07 10:05:00-05:00,240.0306,0.8362035
2025-11-07 10:10:00-05:00,240.9500,0.85136807
2025-11-07 10:15:00-05:00,240.7200,0.8391281
2025-11-07 10:20:00-05:00,240.5700,0.82490456
2025-11-07 10:25:00-05:00,240.9500,0.8281624
2025-11-07 10:30:00-05:00,240.4850,0.81972265
2025-11-07 10:35:00-05:00,240.6800,0.81902915
2025-11-07 10:40:00-05:00,240.7900,0.79449207
2025-11-07 10:45:00-05:00,240.6100,0.7806002
2025-11-07 10:50:00-05:00,240.3300,0.79037845
2025-11-07 10:55:00-05:00,239.8000,0.77963704
2025-11-07 11:00:00-05:00,240.1800,0.7589491
2025-11-07 11:05:00-05:00,239.5800,0.7547383
2025-11-07 11:10:00-05:00,239.3850,0.72749966
2025-11-07 11:15:00-05:00,239.8200,0.72696406
2025-11-07 11:20:00-05:00,239.8800,0.71075237
2025-11-07 11:25:00-05:00,240.0100,0.6792703
2025-11-07 11:30:00-05:00,240.0650,0.66217977
2025-11-07 11:35:00-05:00,239.5700,0.65630996
2025-11-07 11:40:00-05:00,239.5200,0.6580027
2025-11-07 11:45:00-05:00,239.4900,0.6417163
2025-11-07 11:50:00-05:00,239.5500,0.6269507
2025-11-07 11:55:00-05:00,238.8900,0.6457399
2025-11-07 12:00:00-05:00,238.7550,0.63283074
2025-11-07 12:05:00-05:00,238.7900,0.62191397
2025-11-07 12:10:00-05:00,239.3250,0.63168424
2025-11-07 12:15:00-05:00,239.4850,0.6215643
2025-11-07 12:20:00-05:00,239.8410,0.61759615
2025-11-07 12:25:00-05:00,239.7600,0.5999103
2025-11-07 12:30:00-05:00,240.1500,0.5984883
2025-11-07 12:35:00-05:00,239.8600,0.58788174
2025-11-07 12:40:00-05:00,239.6200,0.57017565
2025-11-07 12:45:00-05:00,239.5400,0.5644481
2025-11-07 12:50:00-05:00,239.7600,0.5569869
2025-11-07 12:55:00-05:00,240.1202,0.5550592
2025-11-07 13:00:00-05:00,240.2186,0.53326166
2025-11-07 13:05:00-05:00,240.5958,0.5500857
2025-11-07 13:10:00-05:00,240.4496,0.5343655
2025-11-07 13:15:00-05:00,240.3599,0.52405363
2025-11-07 13:20:00-05:00,240.6550,0.51590616
2025-11-07 13:25:00-05:00,240.5500,0.5124125
2025-11-07 13:30:00-05:00,240.4650,0.5061123
2025-11-07 13:35:00-05:00,240.7665,0.51710343
2025-11-07 13:40:00-05:00,240.8750,0.49945349
2025-11-07 13:45:00-05:00,240.5500,0.50584996
2025-11-07 13:50:00-05:00,240.4800,0.48757496
2025-11-07 13:55:00-05:00,240.7350,0.48524833
2025-11-07 14:00:00-05:00,241.0300,0.49700934
2025-11-07 14:05:00-05:00,241.1990,0.48436525
2025-11-07 14:10:00-05:00,241.4600,0.4770886
2025-11-07 14:15:00-05:00,241.3700,0.46595353
2025-11-07 14:20:00-05:00,241.6200,0.45338604
2025-11-07 14:25:00-05:00,241.4899,0.44171515
2025-11-07 14:30:00-05:00,242.0350,0.4537432
2025-11-07 14:35:00-05:00,242.5453,0.47383302
2025-11-07 14:40:00-05:00,243.1250,0.4942513
2025-11-07 14:45:00-05:00,243.0900,0.49323305
2025-11-07 14:50:00-05:00,243.3600,0.4876445
2025-11-07 14:55:00-05:00,243.5500,0.4842415
2025-11-07 15:00:00-05:00,243.2800,0.48215294
2025-11-07 15:05:00-05:00,243.5317,0.49628434
2025-11-07 15:10:00-05:00,243.7100,0.4865498
2025-11-07 15:15:00-05:00,243.3400,0.4960816
2025-11-07 15:20:00-05:00,243.0900,0.48421875
2025-11-07 15:25:00-05:00,243.3700,0.5024892
2025-11-07 15:30:00-05:00,243.9400,0.51231134
2025-11-07 15:35:00-05:00,244.5096,0.52500355
2025-11-07 15:40:00-05:00,244.7800,0.5376818
2025-11-07 15:45:00-05:00,244.4000,0.53427523
2025-11-07 15:50:00-05:00,244.2678,0.54254085
2025-11-07 15:55:00-05:00,244.4100,0.5473594
